current[l][t]
143.586	159.721	143.586	-53.0325	-53.0325	302.524	302.524	-313.06	-281.893	-207.821	135.37	0	0	-172.128	-172.128	159.721	718.888	-575.303	-225.16	-225.16	340.788	-548.609	135.37	-3461.62	715.396	-1522.2	609.259	-113.431	-997.473	135.37	0	0	609.259	-3024.49	444.663	-120.377	-2311.84	-285.558	-1476.7	
142.121	161.185	142.121	-53.0325	-53.0325	302.524	302.524	-331.566	-263.386	-191.94	100.983	0	0	-167.931	-167.931	161.185	700.729	-558.607	-220.964	-220.964	371.409	-563.349	100.983	-3359.14	643.168	-1458.41	593.532	-109.182	-965.738	100.983	0	0	593.532	-2933.54	433.822	-120.377	-2186.42	-277.113	-1428.13	
138.564	164.742	138.564	-154.798	48.7327	302.524	302.524	-436.613	-158.34	-125.873	-70.1308	0	0	-151.145	-151.145	164.742	656.627	-518.063	-305.942	-557.214	605.42	-731.293	-70.1308	-3232.92	340.201	-1298.21	553.881	-100.819	-881.955	-70.1308	0	0	553.881	-2830.18	390.457	0	-1789.28	-251.963	-1436.21	
133.294	170.012	133.294	-76.5469	-29.5181	302.524	338.024	-381.161	-142.792	-108.046	-32.5054	0	0	-142.752	-142.752	170.012	591.278	-457.983	-219.299	-277.359	513.436	-621.483	-32.5054	-2881.96	338.479	-1174.09	497.076	-83.2573	-773.166	-32.5054	0	0	497.076	-2527.63	368.775	0	-1639.02	-226.009	-1284.68	
68.0692	-68.0692	68.0692	-686.186	-149.169	517.894	302.524	-251.503	-114.999	-249.761	-1.74147	0	0	-172.128	-172.128	-68.0692	844.058	-775.989	-858.313	-1521.3	737.159	-986.92	-1.74147	-4702.48	713.048	-1958.16	731.676	-205.247	-1456.55	-1.74147	0	0	731.676	-4142.93	444.663	0	-2833.93	-377.374	-2178.18	
57.8135	-57.8135	57.8135	-223.848	313.168	1210.89	995.524	400.909	605.509	36.9347	363.975	0	231	-235.145	-235.145	-57.8135	716.887	-659.073	-458.993	-1121.98	698.969	-662.034	363.975	-4296.57	900.265	-1915.02	617.835	-144.072	-1308.22	363.975	0	231	617.835	-3913.88	376.457	0	-2908.61	-379.217	-2228.69	
53.2071	-53.2071	53.2071	-257.617	279.399	1644	1575.42	841.78	1213.5	289.011	552.769	0	410	-254.492	-254.492	-53.2071	659.768	-606.561	-512.11	-1175.09	805.851	-516.84	552.769	-3994.7	891.284	-1789.86	568.126	-119.818	-1235.32	552.769	0	410	568.126	-3681.07	247.438	0	-2752.2	-374.31	-2118.62	
64.0677	-64.0677	64.0677	-504.356	32.6611	1308	1308	585.196	938.664	171.291	413.905	0	377.705	-241.156	-241.156	-64.0677	794.44	-730.372	-745.512	-1408.5	852.904	-681.613	413.905	-4395.39	848.446	-1891.79	689.029	-166.859	-1437.19	413.905	0	377.705	689.029	-3947.52	245.282	0	-2845.7	-408.016	-2068.55	
48.3304	-48.3304	48.3304	-214.448	322.568	1980	1980	1655.91	2296.71	756.824	899.089	250.25	608.705	-286.35	-286.35	-48.3304	599.297	-550.967	-500.798	-1163.78	906.51	-149.687	899.089	-3130.09	823.993	-1403.2	521.989	-91.431	-1173.03	899.089	250.25	608.705	521.989	-2894.45	131.032	-277.2	-2242.28	-377.781	-1430.51	
44.6887	-44.6887	44.6887	18.2917	555.308	1980	1980	1649.9	2310.1	778.892	871.009	500.5	660	-316.52	-316.52	-44.6887	554.14	-509.451	-298.229	-961.212	891.142	-112.249	871.009	-2894.34	732.914	-1319.94	482.656	-67.2925	-1127.76	871.009	500.5	660	482.656	-2728.2	157.678	-517.287	-2080.73	-383.813	-1356.15	
39.4519	-39.4519	39.4519	497.692	1034.71	1980	1980	1755.85	2204.15	739.737	1016.12	715	660	-331.585	-331.585	-39.4519	489.204	-449.752	166.107	-496.877	586.415	153.321	1016.12	-2473.73	916.357	-1260.41	427.066	-42.1833	-1039.88	1016.12	715	660	427.066	-2378.25	196.594	-277.2	-2133.17	-373.768	-1144.32	
32.2788	-32.2788	32.2788	1085.09	1622.11	1980	1980	1899.85	2060.15	679.32	1220.53	500.5	660	-341.628	-341.628	-32.2788	400.257	-367.978	743.464	80.4803	190.259	489.061	1220.53	-2001.54	1197.67	-1221.06	349.684	-11.1141	-909.641	1220.53	500.5	660	349.684	-1993.49	222.539	0	-2275.97	-352.742	-957.742	
30.5416	-30.5416	30.5416	1088.34	1618.86	1980	1980	1910.74	2049.26	671.658	1239.08	250.25	660	-329.074	-329.074	-30.5416	378.715	-348.174	759.262	104.29	168.04	503.617	1239.08	-1981.25	1232.7	-1222.69	329.823	-8.39831	-864.677	1239.08	250.25	660	329.823	-1980.5	190.108	0	-2301.6	-337.473	-1002.82	
36.6146	-36.6146	36.6146	489.119	1026.14	1980	1980	1619.78	1747.76	544.909	1074.87	0	660	-296.393	-296.393	-36.6146	454.021	-417.406	192.726	-470.257	227.903	317.005	1074.87	-2306.09	1164.54	-1292.12	396.23	-42.9108	-955.536	1074.87	0	660	396.23	-2206.26	105.682	0	-2338.95	-339.304	-1065.63	
48.7409	-48.7409	48.7409	378.292	915.308	1453.25	1309.85	1071.72	1239.64	314.523	757.193	0	429	-271.286	-271.286	-48.7409	604.387	-555.646	107.006	-555.977	457.287	-142.763	757.193	-3308.36	1060.1	-1609.79	524.617	-97.7388	-1166.91	757.193	0	429	524.617	-3055.02	271.821	0	-2649.97	-369.024	-1592.5	
60.9785	-60.9785	60.9785	-91.3208	445.696	1308	1308	744.498	975.379	191.251	553.248	0	324	-256.221	-256.221	-60.9785	756.133	-695.155	-347.542	-1010.53	648.498	-457.247	553.248	-4031.43	974.271	-1815.85	657.615	-150.218	-1391.64	553.248	0	324	657.615	-3630.03	337.904	0	-2839.49	-406.439	-1824.52	
50.1624	-50.1624	50.1624	380.675	917.692	1309.85	1503.06	1133.14	1302.08	340.847	792.295	0	429	-273.796	-273.796	-50.1624	622.014	-571.852	106.879	-556.104	442.964	-102.117	792.295	-3260.75	1075.19	-1588	541.633	-102.676	-1197.87	792.295	0	429	541.633	-2992.91	278.307	0	-2633.99	-376.472	-1482.42	
28.1292	-28.1292	28.1292	1159.52	1566.75	1980	1980	1905.09	2054.91	690.476	1214.61	250.25	660	-321.542	-321.542	-28.1292	348.802	-320.673	837.974	335.211	142.475	548	1214.61	-1691.12	1148.56	-1082.87	305.363	-1.8468	-813.089	1214.61	250.25	660	305.363	-1707.3	170.65	0	-2076.8	-323.389	-793.548	
29.3209	-29.3209	29.3209	1120.8	1657.82	1980	1980	1862.45	2083.67	701.74	1160.71	500.5	660	-331.585	-331.585	-29.3209	363.579	-334.258	789.219	126.236	244.421	457.318	1160.71	-1842.34	1080.52	-1120.58	317.352	-2.96022	-843.763	1160.71	500.5	660	317.352	-1856.58	196.594	0	-2076.12	-334.545	-909.388	
40.5745	-40.5745	40.5745	309.35	846.367	1309.85	1309.85	1208.18	1411.53	409.009	799.17	250.25	429	-254.492	-254.492	-40.5745	503.124	-462.549	54.8578	-608.126	411.731	-2.72202	799.17	-2710.21	967.501	-1351.96	437.24	-71.8965	-995.713	799.17	250.25	429	437.24	-2527.46	228.438	56.1592	-2277.7	-326.389	-1297.58	
62.4895	-62.4895	62.4895	-37.3083	499.708	1644	1416.14	825.485	1034.66	203.609	621.876	0	231	-274.549	-274.549	-62.4895	774.87	-712.38	-311.857	-974.841	632.457	-428.848	621.876	-4174.39	1069.92	-1910.6	673.398	-149.862	-1435.68	621.876	0	231	673.398	-3775.54	478.251	0	-3017.93	-424.411	-1923.19	
66.5793	-66.5793	66.5793	-452.908	84.1083	1644	1644	890.528	1197.47	263.558	626.97	0	0	-255.51	-255.51	-66.5793	825.583	-759.004	-708.419	-1371.4	759.499	-495.941	626.97	-4340.57	1042.19	-1921.4	718.744	-172.218	-1499.86	626.97	0	0	718.744	-3877.33	660.068	0	-3012.17	-427.728	-1911.55	
65.8439	-65.8439	65.8439	-868.508	-331.492	1644	1308	769.743	1200.22	272.766	496.977	0	0	-218.359	-218.359	-65.8439	816.465	-750.621	-1086.87	-1749.85	923.969	-651.203	496.977	-4380.54	869.865	-1848.61	709.759	-181.584	-1453.82	496.977	0	0	709.759	-3889.14	564.093	0	-2808.29	-399.943	-1961.71	
65.5789	-65.5789	65.5789	-868.508	-331.492	1074.27	972	260.634	585.631	26.7452	233.889	0	0	-193.11	-193.11	-65.5789	813.178	-747.599	-1061.62	-1724.6	889.137	-862.392	233.889	-4602.98	769.371	-1921.43	704.044	-188.5	-1425.28	233.889	0	0	704.044	-4092.04	498.868	0	-2827.87	-381.61	-2193.11	
